#                    1                    2                    3                    4                    5                    6                    7                    8                    9
#               Time |               Ekin |               Epot |               Etot |      === Energy ===>
#               [fs] |               [eV] |               [eV] |               [eV] |               [eV] |
   0.000000000000E+000  4.021514738336E-001  6.731028796141E+000  7.133180269975E+000  2.134196711136E-001  2.774849804608E+000  2.774849804608E+000  2.774849825492E+000  6.731028796141E+000
   5.000000000000E-001  3.422471257308E-001  6.791522851026E+000  7.133769976757E+000  2.797223843554E-001  2.831633012936E+000  2.831633012935E+000  2.831633034057E+000  6.791522851026E+000
   1.000000000000E+000  2.867564914175E-001  6.847807757095E+000  7.134564248513E+000  3.474907006191E-001  2.886190817148E+000  2.886190817148E+000  2.886190840061E+000  6.847807757095E+000
   1.500000000000E+000  2.497579992124E-001  6.885585075077E+000  7.135343074290E+000  4.024435413867E-001  2.924472749803E+000  2.924472749804E+000  2.924472776034E+000  6.885585075077E+000
   2.000000000000E+000  2.434629589077E-001  6.892225000355E+000  7.135687959263E+000  4.323292532954E-001  2.934181281760E+000  2.934181281760E+000  2.934181312716E+000  6.892225000355E+000
   2.500000000000E+000  2.724508275209E-001  6.862920516760E+000  7.135371344281E+000  4.330995985767E-001  2.910919782651E+000  2.910919782651E+000  2.910919819968E+000  6.862920516760E+000
   3.000000000000E+000  3.308672603967E-001  6.803784131251E+000  7.134651391648E+000  4.119879076539E-001  2.861285540927E+000  2.861285540926E+000  2.861285585685E+000  6.803784131251E+000
   3.500000000000E+000  4.060871030010E-001  6.727946245452E+000  7.134033348453E+000  3.835479162589E-001  2.798987964707E+000  2.798987964707E+000  2.798988018736E+000  6.727946245452E+000
   4.000000000000E+000  4.859427719841E-001  6.647881668123E+000  7.133824440107E+000  3.618811073003E-001  2.737180051898E+000  2.737180051898E+000  2.737180117299E+000  6.647881668123E+000
   4.500000000000E+000  5.636998234637E-001  6.570286740166E+000  7.133986563630E+000  3.553985198796E-001  2.683313210028E+000  2.683313210028E+000  2.683313288254E+000  6.570286740166E+000
   5.000000000000E+000  6.382728965452E-001  6.496019110166E+000  7.134292006711E+000  3.666898592052E-001  2.639039823174E+000  2.639039823174E+000  2.639039917682E+000  6.496019110166E+000
   5.500000000000E+000  7.114611929138E-001  6.423078929989E+000  7.134540122903E+000  3.954675001158E-001  2.603167183726E+000  2.603167183726E+000  2.603167297985E+000  6.423078929989E+000
   6.000000000000E+000  7.851643424132E-001  6.349505693462E+000  7.134670035875E+000  4.414596015175E-001  2.574515884998E+000  2.574515884998E+000  2.574516021288E+000  6.349505693462E+000
   6.500000000000E+000  8.603314259367E-001  6.274418557743E+000  7.134749983680E+000  5.054702554802E-001  2.552956422574E+000  2.552956422574E+000  2.552956586955E+000  6.274418557743E+000
   7.000000000000E+000  9.378248692541E-001  6.197100915173E+000  7.134925784427E+000  5.884219287070E-001  2.538451622984E+000  2.538451622984E+000  2.538451819314E+000  6.197100915173E+000
   7.500000000000E+000  1.020275694429E+000  6.115025871411E+000  7.135301565840E+000  6.892990893077E-001  2.529031281351E+000  2.529031281351E+000  2.529031515507E+000  6.115025871411E+000
   8.000000000000E+000  1.113365300905E+000  6.022460661685E+000  7.135825962591E+000  8.035691334892E-001  2.519327144034E+000  2.519327144033E+000  2.519327423793E+000  6.022460661685E+000
   8.500000000000E+000  1.224944559255E+000  5.911300691618E+000  7.136245250873E+000  9.237511088677E-001  2.501305289405E+000  2.501305289405E+000  2.501305620624E+000  5.911300691618E+000
   9.000000000000E+000  1.361466429174E+000  5.774744859652E+000  7.136211288826E+000  1.042771138111E+000  2.467848446683E+000  2.467848446682E+000  2.467848838322E+000  5.774744859652E+000
   9.500000000000E+000  1.523343679847E+000  5.612185458110E+000  7.135529137956E+000  1.158542377283E+000  2.417600046746E+000  2.417600046747E+000  2.417600509237E+000  5.612185458110E+000
   1.000000000000E+001  1.702610117124E+000  5.431761639917E+000  7.134371757041E+000  1.276269270848E+000  2.357507754544E+000  2.357507754545E+000  2.357508300970E+000  5.431761639917E+000
